Voltage, ChA, Run #15
Time ( s )	Voltage ( V )
0.0000	0.091
0.1000	0.086
0.2000	0.077
0.3000	0.073
0.4000	0.077
0.5000	0.075
0.6000	0.068
0.7000	0.059
0.8000	0.054
0.9000	0.051
1.0000	0.046
1.1000	0.044
1.2000	0.038
1.3000	0.031
1.4000	0.031
1.5000	0.024
1.6000	0.017
1.7000	0.016
1.8000	0.013
1.9000	0.020
2.0000	0.035
2.1000	0.049
2.2000	0.056
2.3000	0.065
2.4000	0.080
2.5000	0.117
2.6000	0.154
2.7000	0.185
2.8000	0.228
2.9000	0.277
3.0000	0.319
3.1000	0.343
3.2000	0.357
3.3000	0.358
3.4000	0.362
3.5000	0.347
3.6000	0.331
3.7000	0.308
3.8000	0.284
3.9000	0.271
4.0000	0.247
4.1000	0.229
4.2000	0.212
4.3000	0.192
4.4000	0.175
4.5000	0.158
4.6000	0.133
4.7000	0.111
4.8000	0.093
4.9000	0.079
5.0000	0.069
5.1000	0.053
5.2000	0.039
5.3000	0.023
5.4000	0.005
5.5000	-0.014
5.6000	-0.023
5.7000	-0.036
5.8000	-0.050
5.9000	-0.064
6.0000	-0.073
6.1000	-0.080
6.2000	-0.100
6.3000	-0.124
6.4000	-0.129
6.5000	-0.138
6.6000	-0.154
6.7000	-0.162
6.8000	-0.170
6.9000	-0.181
7.0000	-0.192
7.1000	-0.211
7.2000	-0.213
7.3000	-0.223
7.4000	-0.237
7.5000	-0.236
7.6000	-0.237
7.7000	-0.248
7.8000	-0.253
7.9000	-0.267
8.0000	-0.266
8.1000	-0.265
8.2000	-0.266
8.3000	-0.267
8.4000	-0.267
8.5000	-0.261
8.6000	-0.255
8.7000	-0.261
8.8000	-0.261
8.9000	-0.251
9.0000	-0.244
9.1000	-0.234
9.2000	-0.229
9.3000	-0.222
9.4000	-0.212
9.5000	-0.204
9.6000	-0.199
9.7000	-0.183
9.8000	-0.174
9.9000	-0.157
10.0000	-0.151
10.1000	-0.142
10.2000	-0.135
10.3000	-0.124
10.4000	-0.115
10.5000	-0.104
10.6000	-0.095
10.7000	-0.085
10.8000	-0.076
10.9000	-0.068
11.0000	-0.064
11.1000	-0.056
11.2000	-0.051
11.3000	-0.045
11.4000	-0.039
11.5000	-0.035
11.6000	-0.029
11.7000	-0.025
11.8000	-0.024
11.9000	-0.020
12.0000	-0.016
12.1000	-0.014
12.2000	-0.010
12.3000	-0.008
12.4000	-0.006
12.5000	-0.004
12.6000	-0.002
12.7000	0.000
12.8000	0.003
12.9000	0.003
13.0000	0.007
13.1000	0.011
13.2000	0.012
13.3000	0.014
13.4000	0.015
13.5000	0.016
13.6000	0.020
13.7000	0.025
13.8000	0.025
13.9000	0.031
14.0000	0.032
14.1000	0.034
14.2000	0.038
14.3000	0.040
14.4000	0.044
14.5000	0.048
14.6000	0.049
14.7000	0.055
14.8000	0.056
14.9000	0.058
15.0000	0.060
15.1000	0.066
15.2000	0.066
15.3000	0.073
15.4000	0.073
15.5000	0.075
15.6000	0.077
15.7000	0.077
15.8000	0.079
15.9000	0.082
16.0000	0.083
16.1000	0.084
16.2000	0.084
16.3000	0.086
16.4000	0.086
16.5000	0.082
16.6000	0.079
16.7000	0.083
16.8000	0.081
16.9000	0.079
17.0000	0.079
17.1000	0.075
17.2000	0.071
17.3000	0.072
17.4000	0.066
17.5000	0.067
17.6000	0.062
17.7000	0.062
17.8000	0.057
17.9000	0.062
18.0000	0.049
18.1000	0.048
18.2000	0.042
18.3000	0.041
18.4000	0.039
18.5000	0.027
18.6000	0.022
18.7000	0.024
18.8000	0.024
18.9000	0.015
19.0000	0.008
19.1000	0.001
19.2000	-0.003
19.3000	0.004
19.4000	-0.005
19.5000	-0.004
19.6000	-0.011
19.7000	-0.014
19.8000	-0.005
19.9000	-0.018
20.0000	-0.018
20.1000	-0.036
20.2000	-0.028
20.3000	-0.033
20.4000	-0.030
20.5000	-0.034
20.6000	-0.035
20.7000	-0.031
20.8000	-0.041
20.9000	-0.041
21.0000	-0.052
21.1000	-0.049
21.2000	-0.049
21.3000	-0.047
21.4000	-0.047
21.5000	-0.046
21.6000	-0.052
21.7000	-0.049
21.8000	-0.047
21.9000	-0.055
22.0000	-0.056
22.1000	-0.054
22.2000	-0.048
22.3000	-0.045
22.4000	-0.052
22.5000	-0.041
22.6000	-0.052
22.7000	-0.057
22.8000	-0.040
22.9000	-0.037
23.0000	-0.049
23.1000	-0.043
23.2000	-0.039
23.3000	-0.030
23.4000	-0.038
23.5000	-0.038
23.6000	-0.039
23.7000	-0.033
23.8000	-0.029
23.9000	-0.023
24.0000	-0.029
24.1000	-0.031
24.2000	-0.025
24.3000	-0.020
24.4000	-0.018
24.5000	-0.018
24.6000	-0.022
24.7000	-0.013
24.8000	-0.010
24.9000	-0.013
25.0000	-0.016
25.1000	-0.013
25.2000	-0.010
25.3000	0.001
25.4000	-0.003
25.5000	-0.008
25.6000	-0.004
25.7000	0.000
25.8000	0.002
25.9000	-0.002
26.0000	-0.003
26.1000	0.006
26.2000	0.013
26.3000	0.009
26.4000	0.007
26.5000	0.005
26.6000	0.008
26.7000	0.011
26.8000	0.016
26.9000	0.014
27.0000	0.015
27.1000	0.013
27.2000	0.017
27.3000	0.020
27.4000	0.014
27.5000	0.011
27.6000	0.016
27.7000	0.023
27.8000	0.026
27.9000	0.025
28.0000	0.016
28.1000	0.014
28.2000	0.019
28.3000	0.023
28.4000	0.022
28.5000	0.018
28.6000	0.023
28.7000	0.025
28.8000	0.021
28.9000	0.020
29.0000	0.016
29.1000	0.014
29.2000	0.021
29.3000	0.025
29.4000	0.021
29.5000	0.018
29.6000	0.015
29.7000	0.018
29.8000	0.017
29.9000	0.012
30.0000	0.013
30.1000	0.017
30.2000	0.014
30.3000	0.015
30.4000	0.010
30.5000	0.007
30.6000	0.009
30.7000	0.009
30.8000	0.009
30.9000	0.010
31.0000	0.004
31.1000	0.006
31.2000	0.006
31.3000	0.002
31.4000	-0.003
31.5000	-0.004
31.6000	0.000
31.7000	0.003
31.8000	0.003
31.9000	-0.002
32.0000	-0.006
32.1000	-0.007
32.2000	-0.001
32.3000	-0.009
32.4000	-0.009
32.5000	-0.006
32.6000	-0.003
32.7000	-0.009
32.8000	-0.013
32.9000	-0.009
33.0000	-0.008
33.1000	-0.011
33.2000	-0.016
33.3000	-0.009
33.4000	-0.010
33.5000	-0.015
33.6000	-0.017
33.7000	-0.009
33.8000	-0.014
33.9000	-0.010
34.0000	-0.015
34.1000	-0.011
34.2000	-0.014
34.3000	-0.015
34.4000	-0.013
34.5000	-0.013
34.6000	-0.014
34.7000	-0.015
34.8000	-0.007
34.9000	-0.010
35.0000	-0.016
35.1000	-0.011
35.2000	-0.008
35.3000	-0.008
35.4000	-0.021
35.5000	-0.008
35.6000	-0.005
35.7000	-0.006
35.8000	-0.014
35.9000	-0.007
36.0000	-0.003
36.1000	-0.004
36.2000	-0.013
36.3000	-0.010
36.4000	-0.004
36.5000	-0.001
36.6000	-0.006
36.7000	-0.009
36.8000	-0.005
36.9000	0.001
37.0000	-0.004
37.1000	-0.010
37.2000	-0.006
37.3000	0.002
37.4000	-0.005
37.5000	-0.007
37.6000	0.000
37.7000	0.001
37.8000	-0.001
37.9000	-0.006
38.0000	0.001
38.1000	0.009
38.2000	-0.003
38.3000	-0.005
38.4000	0.004
38.5000	0.006
38.6000	0.003
38.7000	-0.001
38.8000	0.000
38.9000	0.007
39.0000	0.004
39.1000	0.004
39.2000	0.007
39.3000	0.008
39.4000	0.004
39.5000	0.004
39.6000	0.001
39.7000	0.006
39.8000	0.003
39.9000	0.001
40.0000	0.003
40.1000	0.010
40.2000	0.005
40.3000	0.008
40.4000	0.003
40.5000	0.001
40.6000	0.004
40.7000	0.003
40.8000	0.006
40.9000	0.007
41.0000	0.008
41.1000	0.009
41.2000	0.005
41.3000	0.003
41.4000	0.009
41.5000	0.002
41.6000	0.005
41.7000	0.009
41.8000	0.006
41.9000	0.003
42.0000	0.002
42.1000	0.007
42.2000	0.004
42.3000	0.003
42.4000	0.004
42.5000	0.006
42.6000	0.002
42.7000	0.000
42.8000	0.001
42.9000	-0.001
43.0000	-0.002
43.1000	0.004
43.2000	0.003
43.3000	0.002
43.4000	-0.002
43.5000	-0.002
43.6000	0.001
43.7000	-0.007
43.8000	-0.004
43.9000	0.000
44.0000	-0.002
44.1000	-0.002
44.2000	0.000
44.3000	-0.003
44.4000	-0.005
44.5000	-0.009
44.6000	-0.009
44.7000	-0.002
44.8000	0.000
44.9000	-0.005
45.0000	-0.004
45.1000	-0.006
45.2000	-0.008
45.3000	-0.003
45.4000	-0.007
45.5000	-0.005
45.6000	-0.005
45.7000	-0.006
45.8000	-0.004
45.9000	-0.001
46.0000	-0.010
46.1000	-0.008
46.2000	-0.006
46.3000	-0.002
46.4000	-0.001
46.5000	-0.007
46.6000	-0.008
46.7000	-0.003
46.8000	-0.006
46.9000	-0.007
47.0000	-0.004
47.1000	-0.004
47.2000	-0.004
47.3000	0.000
47.4000	-0.005
47.5000	-0.002
47.6000	-0.011
47.7000	-0.010
47.8000	0.002
47.9000	0.005
48.0000	-0.004
48.1000	-0.005
48.2000	-0.001
48.3000	0.001
48.4000	-0.005
48.5000	-0.010
48.6000	-0.004
48.7000	0.002
48.8000	0.000
48.9000	0.002
49.0000	0.000
49.1000	-0.002
49.2000	-0.005
49.3000	-0.004
49.4000	0.000
49.5000	0.002
49.6000	0.001
49.7000	-0.003
49.8000	0.004
49.9000	0.000
50.0000	-0.003
50.1000	-0.004
50.2000	-0.003
50.3000	0.005
50.4000	0.009
50.5000	0.000
50.6000	0.000
50.7000	0.000
50.8000	0.001
50.9000	-0.001
51.0000	-0.002
51.1000	0.001
51.2000	0.007
51.3000	0.008
51.4000	0.001
51.5000	-0.002
51.6000	0.000
51.7000	0.001
51.8000	-0.002
51.9000	-0.001
52.0000	0.012
52.1000	0.002
52.2000	0.004
52.3000	0.004
52.4000	0.004
52.5000	0.000
52.6000	0.002
52.7000	0.005
52.8000	0.013
52.9000	0.004
53.0000	0.000
53.1000	0.005
53.2000	0.003
53.3000	0.001
53.4000	-0.001
53.5000	0.003
53.6000	0.008
53.7000	0.007
53.8000	-0.002
53.9000	0.003
54.0000	0.002
54.1000	0.001
54.2000	0.004
54.3000	0.001
54.4000	-0.001
54.5000	0.001
54.6000	0.006
54.7000	-0.001
54.8000	-0.004
54.9000	0.003
55.0000	0.003
55.1000	0.003
55.2000	0.000
55.3000	-0.007
55.4000	0.001
55.5000	0.002
55.6000	-0.001
55.7000	-0.005
55.8000	0.002
55.9000	-0.003
56.0000	-0.003
